%time,field.data
1544452493268237591,-0.250784993172
1544452493318412781,-0.249693006277
1544452493370098829,-0.24808999896
1544452493420845032,-0.244857996702
1544452493471083641,-0.242202997208
1544452493523639679,-0.239227995276
1544452493573321819,-0.234387993813
1544452493623614311,-0.230911999941
1544452493675042391,-0.227382004261
1544452493725888252,-0.222275003791
1544452493779601097,-0.218750998378
1544452493831281185,-0.213431999087
1544452493881530523,-0.211677998304
1544452493934345722,-0.20628400147
1544452493984661818,-0.200829997659
1544452494034859896,-0.197222992778
1544452494085147142,-0.193895995617
1544452494135291815,-0.190623000264
1544452494186001062,-0.185590997338
1544452494238772869,-0.182159006596
1544452494292578936,-0.178694993258
1544452494342949152,-0.175337001681
1544452494393242836,-0.170222997665
1544452494443965435,-0.166741997004
1544452494494189978,-0.161887004972
1544452494544167280,-0.158696994185
1544452494596559048,-0.155449002981
1544452494646996021,-0.152355998755
1544452494697021246,-0.147706001997
1544452494747838020,-0.144725993276
1544452494798558712,-0.141936004162
1544452494849556446,-0.138078004122
1544452494900271416,-0.135582998395
1544452494951022625,-0.13208399713
1544452495001326084,-0.129834994674
1544452495051602602,-0.127575993538
1544452495102576733,-0.125355005264
1544452495153340340,-0.121936000884
1544452495205449581,-0.119606003165
1544452495257058620,-0.117282003164
1544452495307736158,-0.115124002099
1544452495358043432,-0.111924998462
1544452495410796642,-0.109934002161
1544452495462892056,-0.108167000115
1544452495512351274,-0.105729997158
1544452495565919876,-0.104216001928
1544452495616597176,-0.102006003261
1544452495667473793,-0.100552998483
1544452495719146729,-0.0991453006864
1544452495771942377,-0.0977640002966
1544452495822434425,-0.095666103065
1544452495872602463,-0.0934884995222
1544452495923321962,-0.0920547023416
1544452495975647688,-0.0906281992793
1544452496026714563,-0.0892345011234
1544452496076684713,-0.087048701942
1544452496127221107,-0.0855450034142
1544452496177244186,-0.0841367989779
1544452496228243351,-0.0820249989629
1544452496280057192,-0.0805877968669
1544452496330219984,-0.0792659968138
1544452496381610632,-0.0779839009047
1544452496432424068,-0.076021797955
1544452496483608007,-0.0746729001403
1544452496533547878,-0.0725975036621
1544452496584376574,-0.0719157978892
1544452496634697437,-0.069243401289
1544452496689527512,-0.066903501749
1544452496740211248,-0.0625056996942
1544452496792062521,-0.0590691007674
1544452496842672586,-0.0550890006125
1544452496893616915,-0.0501497015357
1544452496944495201,-0.0406847000122
1544452496995707989,-0.0328482016921
1544452497045914173,-0.0185081008822
1544452497096961737,-0.00686377985403
1544452497148101568,0.00638122996315
1544452497198329687,0.0208024997264
1544452497249374866,0.0441352985799
1544452497300155163,0.0614174008369
1544452497350974798,0.0901065990329
1544452497401822805,0.110808998346
1544452497453686714,0.132924005389
1544452497505845308,0.169286996126
1544452497556144238,0.195537999272
1544452497606395960,0.223251000047
1544452497657275438,0.251441985369
1544452497707696438,0.293642997742
1544452497757801294,0.321956992149
1544452497808343172,0.348942011595
1544452497858777285,0.386519014835
1544452497908962727,0.410468012094
1544452497960720301,0.444229990244
1544452498018243313,0.465597987175
1544452498063246965,0.496172994375
1544452498116618872,0.52491402626
1544452498167444229,0.542491972446
1544452498220646858,0.566398024559
1544452498271384478,0.588446974754
1544452498322206736,0.602092981339
1544452498373247147,0.620689988136
1544452498424366713,0.632297992706
1544452498474121094,0.643435001373
1544452498526587963,0.65866202116
1544452498577245951,0.672599971294
1544452498629076242,0.681057989597
1544452498679847002,0.692884981632
1544452498730607510,0.703544020653
1544452498781633139,0.709412992001
1544452498833327293,0.716252982616
1544452498883357048,0.720095992088
1544452498933903456,0.725332975388
1544452498987007141,0.728744983673
1544452499037928104,0.733675003052
1544452499088047266,0.736594974995
1544452499138249397,0.741145014763
1544452499189004660,0.746223986149
1544452499240736723,0.749907970428
1544452499290953398,0.755762994289
1544452499342411757,0.759692013264
1544452499394385815,0.765443980694
1544452499445097208,0.769302010536
1544452499495331287,0.775231003761
1544452499545608044,0.779165029526
1544452499596382380,0.785126984119
1544452499646543026,0.790879011154
1544452499699326754,0.794623970985
1544452499747820139,0.798196971416
1544452499798648834,0.803291022778
1544452499849540949,0.808346986771
1544452499900293112,0.811540007591
1544452499951121807,0.814616978168
1544452500001625538,0.818879008293
1544452500051792860,0.821596980095
1544452500102565527,0.825564026833
1544452500152908802,0.829041004181
1544452500204225779,0.830972015858
1544452500255004883,0.833187997341
1544452500307061672,0.834266006947
1544452500356416941,0.835722029209
1544452500407285452,0.836628973484
1544452500459358215,0.83796697855
1544452500509025335,0.839199006557
1544452500559886694,0.840026974678
1544452500610423803,0.840840995312
1544452500660511255,0.842027008533
1544452500711316347,0.843159019947
1544452500762845993,0.843877017498
1544452500812939882,0.844756007195
1544452500863763332,0.845336019993
1544452500914006233,0.846145987511
1544452500964411736,0.846590995789
1544452501015157223,0.847042024136
1544452501065263033,0.847701013088
1544452501117855787,0.848353981972
1544452501168577194,0.848951995373
1544452501218771219,0.84933501482
1544452501268945217,0.849866986275
1544452501319200516,0.850193977356
1544452501369362116,0.850650012493
1544452501419773102,0.850916981697
1544452501470603466,0.851301014423
1544452501524495125,0.851523995399
1544452501574806929,0.851817011833
1544452501627337933,0.851980984211
1544452501677664280,0.852181017399
1544452501728510141,0.852284014225
1544452501779327869,0.852379977703
1544452501831081390,0.852432012558
1544452501882131577,0.852433025837
1544452501933752775,0.852428019047
1544452501983814716,0.85237300396
1544452502036868334,0.852286994457
1544452502087018013,0.852208018303
1544452502137024879,0.852077007294
1544452502187170029,0.851972997189
1544452502237630129,0.851805984974
1544452502287699223,0.851629018784
1544452502338281631,0.85151797533
1544452502389084578,0.851364016533
1544452502439337492,0.85125797987
1544452502490688801,0.851073980331
1544452502540902615,0.850946009159
1544452502591126442,0.850719988346
1544452502641537189,0.850558996201
1544452502691912651,0.85029399395
1544452502742312670,0.850117981434
1544452502792767286,0.849828004837
1544452502842951298,0.849654972553
1544452502897417545,0.849390983582
1544452502944173574,0.849213004112
1544452502994761705,0.848959028721
1544452503045836687,0.848806977272
1544452503096472263,0.848599016666
1544452503149510622,0.84848099947
1544452503201775551,0.848290979862
1544452503252542257,0.848137021065
1544452503307400942,0.847862005234
1544452503357332945,0.847534000874
1544452503407429457,0.847289025784
1544452503457636356,0.846909999847
1544452503507825851,0.846508026123
1544452503560390472,0.846261978149
1544452503611444712,0.845957994461
1544452503663296938,0.845728993416
1544452503714868069,0.845351994038
1544452503767004967,0.845130980015
1544452503818633795,0.844817996025
1544452503869565487,0.844663977623
1544452503920045853,0.844489991665
1544452503971041918,0.844340026379
1544452504022841215,0.844111979008
1544452504073045492,0.843924999237
1544452504123582840,0.843618988991
1544452504175724268,0.843267023563
1544452504225959063,0.843010008335
1544452504276934147,0.842597007751
1544452504327810764,0.842299997807
1544452504377995253,0.84185397625
1544452504428451300,0.841453015804
1544452504478857994,0.841198027134
1544452504529511452,0.840869009495
1544452504580766678,0.840654015541
1544452504632981539,0.840454995632
1544452504683380842,0.840193986893
1544452504736086845,0.8399990201
1544452504786969185,0.839679002762
1544452504837747097,0.839309990406
1544452504888594866,0.839017987251
1544452504938766003,0.838572978973
1544452504989302874,0.838123977184
1544452505039309740,0.837819993496
1544452505089568138,0.837391972542
1544452505139918089,0.837099015713
1544452505190469980,0.836664974689
1544452505240673304,0.836401998997
1544452505291174412,0.836054980755
1544452505341590881,0.835831999779
1544452505392390013,0.835510015488
1544452505442895174,0.835295021534
1544452505493429661,0.834987998009
1544452505543592453,0.834792971611
1544452505598837376,0.834599018097
1544452505643999100,0.834303021431
1544452505694711685,0.833981990814
1544452505746220112,0.833764970303
1544452505795945644,0.833441972733
1544452505846186399,0.833212018013
1544452505897088766,0.83297097683
1544452505947350264,0.832762002945
1544452505999195576,0.832544982433
1544452506049401283,0.832203984261
1544452506099713326,0.831956028938
1544452506150003910,0.83160597086
1544452506200255156,0.831368029118
1544452506250459433,0.831133008003
1544452506300870895,0.830772995949
1544452506353145123,0.830534994602
1544452506403710842,0.830183982849
1544452506456505060,0.829967975616
1544452506504772902,0.829760015011
1544452506555604219,0.829573988914
1544452506606098890,0.829387009144
1544452506656246662,0.82910400629
1544452506706654310,0.828898012638
1544452506756923676,0.828612029552
1544452506807019234,0.826977014542
1544452506858799934,0.824669003487
1544452506909988880,0.82124298811
1544452506961131811,0.812844991684
1544452507010363340,0.804592013359
1544452507060779572,0.793839991093
1544452507111630678,0.780798017979
1544452507162445068,0.757234990597
1544452507213324070,0.738865017891
1544452507263353586,0.718080997467
1544452507317013502,0.6823310256
1544452507365775108,0.655378997326
1544452507414911032,0.625823974609
1544452507467286348,0.576247990131
1544452507518048286,0.539807021618
1544452507568205595,0.50079202652
1544452507622799873,0.438136011362
1544452507673204422,0.394050002098
1544452507729303598,0.325289994478
1544452507776497126,0.278573006392
1544452507826924324,0.23165500164
1544452507877858877,0.184806004167
1544452507927913666,0.114143997431
1544452507978073835,0.0671612024307
1544452508028201818,0.0200711004436
1544452508080387354,-0.0268553998321
1544452508130922318,-0.0976324006915
1544452508181607246,-0.145107999444
1544452508231737375,-0.192411005497
1544452508282206297,-0.262284994125
1544452508333025932,-0.307924002409
1544452508383810997,-0.352311998606
1544452508434602261,-0.416002005339
1544452508485480309,-0.456730008125
1544452508535728216,-0.495638996363
1544452508588100433,-0.549902021885
1544452508638849258,-0.583634018898
1544452508691663742,-0.615742981434
1544452508742023706,-0.660848021507
1544452508792814016,-0.688660025597
1544452508843122244,-0.7149310112
1544452508894123793,-0.750378012657
1544452508943778276,-0.771005988121
1544452508996085167,-0.789438009262
1544452509046227455,-0.812507987022
1544452509097061396,-0.825432002544
1544452509147323608,-0.836669027805
1544452509197763681,-0.84652197361
1544452509247947216,-0.85543102026
1544452509298492432,-0.866618990898
1544452509349283695,-0.873040020466
1544452509403116941,-0.879031002522
1544452509453177929,-0.88668602705
1544452509503785372,-0.891216993332
1544452509553835630,-0.895075023174
1544452509605169773,-0.89989900589
1544452509657018900,-0.902965009212
1544452509707728863,-0.907311975956
1544452509758672953,-0.909969985485
1544452509809413910,-0.912608981133
1544452509859859228,-0.915214002132
1544452509911105633,-0.91916000843
1544452509961962700,-0.921693980694
1544452510012189150,-0.925230979919
1544452510062563896,-0.927230000496
1544452510113414526,-0.929000020027
1544452510163900852,-0.930545985699
1544452510214268446,-0.932662010193
1544452510264842033,-0.933965981007
1544452510315533400,-0.935230016708
1544452510366363525,-0.937053024769
1544452510417077065,-0.938246011734
1544452510468013525,-0.939431011677
1544452510518805027,-0.941141009331
1544452510568918943,-0.942189991474
1544452510619673491,-0.943159997463
1544452510669286966,-0.944002985954
1544452510719754457,-0.944734990597
1544452510770769835,-0.945689976215
1544452510823815346,-0.946208000183
1544452510875322104,-0.946623027325
1544452510927380323,-0.946986973286
1544452510978130579,-0.94708698988
1544452511028588057,-0.94704502821
1544452511078712225,-0.946741998196
1544452511129681110,-0.946426987648
1544452511180460215,-0.945842981339
1544452511231167316,-0.945343971252
